date,Open,High,Low,Close,Adj Close,Volume,symbol
2024-04-01 04:00:00+00:00,143.7899932861328,143.7899932861328,142.1199951171875,142.2899932861328,140.2266082763672,204400,ATR
2024-04-02 04:00:00+00:00,141.83999633789062,141.83999633789062,140.38999938964844,140.6300048828125,138.59068298339844,202600,ATR
2024-04-03 04:00:00+00:00,140.6699981689453,141.19000244140625,139.8699951171875,140.8800048828125,138.83706665039062,258700,ATR
2024-04-04 04:00:00+00:00,141.8300018310547,142.75,140.97000122070312,141.75,139.69444274902344,403600,ATR
2024-04-05 04:00:00+00:00,141.3800048828125,142.75999450683594,140.9499969482422,141.72999572753906,139.6747283935547,288300,ATR
2024-04-08 04:00:00+00:00,141.6699981689453,142.3800048828125,140.38999938964844,140.50999450683594,138.47242736816406,312500,ATR
2024-04-09 04:00:00+00:00,140.4199981689453,141.10000610351562,139.36000061035156,140.30999755859375,138.27532958984375,242600,ATR
2024-04-10 04:00:00+00:00,138.97999572753906,140.22000122070312,138.4499969482422,139.39999389648438,137.37852478027344,200700,ATR
2024-04-11 04:00:00+00:00,139.25999450683594,140.0399932861328,138.4499969482422,139.1300048828125,137.11244201660156,265300,ATR
2024-04-12 04:00:00+00:00,138.1699981689453,138.9499969482422,135.9600067138672,137.1999969482422,135.21043395996094,299200,ATR
2024-04-15 04:00:00+00:00,138.61000061035156,139.80999755859375,137.8300018310547,138.1999969482422,136.19590759277344,319600,ATR
2024-04-16 04:00:00+00:00,137.7899932861328,139.38999938964844,137.36000061035156,138.58999633789062,136.58026123046875,281700,ATR
2024-04-17 04:00:00+00:00,138.8800048828125,139.47999572753906,138.35000610351562,138.39999389648438,136.3930206298828,565400,ATR
2024-04-18 04:00:00+00:00,138.38999938964844,139.44000244140625,138.22000122070312,139.11000061035156,137.0927276611328,246600,ATR
2024-04-19 04:00:00+00:00,139.05999755859375,139.9199981689453,138.77000427246094,139.33999633789062,137.3193817138672,276600,ATR
2024-04-22 04:00:00+00:00,139.5500030517578,141.14999389648438,139.25,140.32000732421875,138.28518676757812,298800,ATR
2024-04-23 04:00:00+00:00,139.77000427246094,141.16000366210938,139.52000427246094,140.14999389648438,138.11764526367188,417200,ATR
2024-04-24 04:00:00+00:00,139.9499969482422,140.89999389648438,139.63999938964844,140.00999450683594,138.38450622558594,559200,ATR
2024-04-25 04:00:00+00:00,139.83999633789062,141.25,138.9199981689453,140.17999267578125,138.5525360107422,694400,ATR
2024-04-26 04:00:00+00:00,142.0,148.50999450683594,141.89999389648438,143.3300018310547,141.66595458984375,489500,ATR
2024-04-29 04:00:00+00:00,144.89999389648438,148.02000427246094,144.3699951171875,146.3800048828125,144.68055725097656,676700,ATR
2024-04-30 04:00:00+00:00,145.74000549316406,146.10000610351562,144.05999755859375,144.3800048828125,142.7037811279297,585100,ATR
2024-05-01 04:00:00+00:00,144.99000549316406,147.2100067138672,144.5800018310547,145.3800048828125,143.69216918945312,359600,ATR
2024-05-02 04:00:00+00:00,145.75999450683594,146.72999572753906,145.2899932861328,145.9199981689453,144.2259063720703,356500,ATR
2024-05-03 04:00:00+00:00,147.11000061035156,147.1300048828125,144.83999633789062,146.80999755859375,145.10556030273438,303300,ATR
2024-05-06 04:00:00+00:00,147.75999450683594,149.0800018310547,147.16000366210938,149.0399932861328,147.30966186523438,260200,ATR
2024-05-07 04:00:00+00:00,148.32000732421875,150.3800048828125,148.32000732421875,149.72000122070312,147.98178100585938,392900,ATR
2024-05-08 04:00:00+00:00,149.72000122070312,150.8699951171875,149.47999572753906,150.7899932861328,149.0393524169922,223500,ATR
2024-05-09 04:00:00+00:00,151.0,151.72999572753906,148.6300048828125,149.0800018310547,147.34921264648438,299100,ATR
2024-05-10 04:00:00+00:00,148.9499969482422,149.0,148.08999633789062,148.49000549316406,146.7660675048828,186300,ATR
2024-05-13 04:00:00+00:00,148.52999877929688,149.47999572753906,146.86000061035156,147.8699951171875,146.15325927734375,167500,ATR
2024-05-14 04:00:00+00:00,148.3000030517578,148.30999755859375,147.47000122070312,147.89999389648438,146.1829071044922,137600,ATR
2024-05-15 04:00:00+00:00,147.9600067138672,148.33999633789062,146.77000427246094,147.27999877929688,145.57009887695312,211100,ATR
2024-05-16 04:00:00+00:00,147.3699951171875,147.89999389648438,146.42999267578125,147.5399932861328,145.8270721435547,235500,ATR
2024-05-17 04:00:00+00:00,147.85000610351562,148.1699981689453,147.1300048828125,147.6699981689453,145.95558166503906,169500,ATR
2024-05-20 04:00:00+00:00,147.58999633789062,148.41000366210938,147.0399932861328,148.1699981689453,146.4497833251953,163400,ATR
2024-05-21 04:00:00+00:00,147.94000244140625,148.67999267578125,147.08999633789062,148.58999633789062,146.86488342285156,280400,ATR
2024-05-22 04:00:00+00:00,148.07000732421875,148.8300018310547,147.47000122070312,148.7899932861328,147.0625762939453,283300,ATR
2024-05-23 04:00:00+00:00,148.66000366210938,148.9499969482422,147.55999755859375,147.72000122070312,146.00498962402344,171700,ATR
2024-05-24 04:00:00+00:00,148.47999572753906,148.8300018310547,147.36000061035156,148.08999633789062,146.37071228027344,162300,ATR
2024-05-28 04:00:00+00:00,147.6199951171875,147.77999877929688,145.82000732421875,146.7100067138672,145.00672912597656,318400,ATR
2024-05-29 04:00:00+00:00,145.64999389648438,146.6999969482422,144.50999450683594,144.83999633789062,143.15843200683594,229700,ATR
2024-05-30 04:00:00+00:00,145.1300048828125,146.97999572753906,145.0,146.13999938964844,144.443359375,328100,ATR
2024-05-31 04:00:00+00:00,146.08999633789062,147.8300018310547,145.9199981689453,147.69000244140625,145.975341796875,358900,ATR
2024-06-03 04:00:00+00:00,148.5,148.5,146.27999877929688,148.16000366210938,146.43988037109375,266200,ATR
2024-06-04 04:00:00+00:00,147.64999389648438,148.38999938964844,146.6999969482422,148.19000244140625,146.46954345703125,287900,ATR
2024-06-05 04:00:00+00:00,147.72000122070312,148.1999969482422,147.0800018310547,147.9199981689453,146.20266723632812,229200,ATR
2024-06-06 04:00:00+00:00,148.00999450683594,148.00999450683594,145.39999389648438,145.9600067138672,144.26544189453125,197600,ATR
2024-06-07 04:00:00+00:00,145.77000427246094,146.3300018310547,145.4499969482422,145.5500030517578,143.8601837158203,179100,ATR
2024-06-10 04:00:00+00:00,144.8300018310547,145.80999755859375,143.99000549316406,145.58999633789062,143.89971923828125,125800,ATR
2024-06-11 04:00:00+00:00,144.91000366210938,145.74000549316406,144.35000610351562,145.5,143.81076049804688,147700,ATR
2024-06-12 04:00:00+00:00,146.24000549316406,146.30999755859375,144.07000732421875,145.8300018310547,144.13694763183594,221300,ATR
2024-06-13 04:00:00+00:00,145.88999938964844,146.52999877929688,145.02000427246094,145.8300018310547,144.13694763183594,232400,ATR
2024-06-14 04:00:00+00:00,145.08999633789062,145.3800048828125,143.67999267578125,144.75,143.06948852539062,141500,ATR
2024-06-17 04:00:00+00:00,144.8699951171875,146.67999267578125,144.57000732421875,146.3300018310547,144.6311492919922,303800,ATR
2024-06-18 04:00:00+00:00,146.47999572753906,147.69000244140625,146.47000122070312,146.69000244140625,144.98695373535156,219900,ATR
2024-06-20 04:00:00+00:00,146.66000366210938,147.52999877929688,145.6699981689453,145.80999755859375,144.11717224121094,199900,ATR
2024-06-21 04:00:00+00:00,145.8699951171875,147.13999938964844,145.30999755859375,146.85000610351562,145.14511108398438,444100,ATR
2024-06-24 04:00:00+00:00,147.22000122070312,148.22999572753906,146.6699981689453,146.72000122070312,145.0166015625,182900,ATR
2024-06-25 04:00:00+00:00,146.7899932861328,146.8000030517578,144.5,144.86000061035156,143.17820739746094,194500,ATR
2024-06-26 04:00:00+00:00,144.25,144.7899932861328,142.9600067138672,143.7100067138672,142.04156494140625,192400,ATR
2024-06-27 04:00:00+00:00,143.8699951171875,143.8800048828125,142.27000427246094,143.8699951171875,142.19969177246094,377300,ATR
2024-06-28 04:00:00+00:00,143.77999877929688,144.32000732421875,140.08999633789062,140.80999755859375,139.17523193359375,435100,ATR
2024-07-01 04:00:00+00:00,141.3800048828125,141.47999572753906,138.38999938964844,138.5399932861328,136.9315948486328,306400,ATR
2024-07-02 04:00:00+00:00,138.47999572753906,140.5,137.75999450683594,140.39999389648438,138.7699737548828,259400,ATR
2024-07-03 04:00:00+00:00,140.8800048828125,141.39999389648438,140.57000732421875,141.22000122070312,139.58045959472656,143300,ATR
2024-07-05 04:00:00+00:00,140.99000549316406,141.44000244140625,139.72999572753906,140.89999389648438,139.26417541503906,207000,ATR
2024-07-08 04:00:00+00:00,141.64999389648438,142.5,141.5,141.50999450683594,139.86709594726562,249300,ATR
2024-07-09 04:00:00+00:00,140.86000061035156,141.27000427246094,139.75,140.0399932861328,138.41415405273438,238400,ATR
2024-07-10 04:00:00+00:00,140.75,141.6300048828125,140.57000732421875,141.2899932861328,139.64964294433594,142000,ATR
2024-07-11 04:00:00+00:00,141.1999969482422,143.3000030517578,140.75,142.08999633789062,140.44036865234375,244500,ATR
2024-07-12 04:00:00+00:00,143.41000366210938,145.49000549316406,143.41000366210938,144.58999633789062,142.91134643554688,263900,ATR
2024-07-15 04:00:00+00:00,144.75999450683594,145.69000244140625,143.13999938964844,143.42999267578125,141.76480102539062,319900,ATR
2024-07-16 04:00:00+00:00,143.85000610351562,145.3000030517578,143.85000610351562,144.55999755859375,142.88169860839844,178800,ATR
2024-07-17 04:00:00+00:00,144.33999633789062,145.77000427246094,144.33999633789062,144.86000061035156,143.17820739746094,242300,ATR
2024-07-18 04:00:00+00:00,144.61000061035156,147.25,144.60000610351562,146.27999877929688,144.5817108154297,434200,ATR
2024-07-19 04:00:00+00:00,146.58999633789062,146.58999633789062,144.66000366210938,145.94000244140625,144.2456512451172,251200,ATR
2024-07-22 04:00:00+00:00,145.99000549316406,147.55999755859375,145.25,147.19000244140625,145.48117065429688,235700,ATR
2024-07-23 04:00:00+00:00,147.8699951171875,148.50999450683594,145.6699981689453,146.0399932861328,144.34449768066406,234500,ATR
2024-07-24 04:00:00+00:00,146.07000732421875,146.6300048828125,143.89999389648438,144.13999938964844,142.46656799316406,250600,ATR
2024-07-25 04:00:00+00:00,142.8300018310547,144.0500030517578,141.22000122070312,141.49000549316406,140.28529357910156,558100,ATR
2024-07-26 04:00:00+00:00,143.1300048828125,151.2899932861328,142.35000610351562,146.66000366210938,145.41127014160156,562800,ATR
2024-07-29 04:00:00+00:00,146.5800018310547,148.35000610351562,145.1699981689453,147.8000030517578,146.54156494140625,390900,ATR
2024-07-30 04:00:00+00:00,147.3800048828125,147.89999389648438,145.41000366210938,145.75,144.509033203125,411000,ATR
2024-07-31 04:00:00+00:00,146.5,148.85000610351562,145.41000366210938,146.97999572753906,145.7285614013672,280600,ATR
2024-08-01 04:00:00+00:00,146.8800048828125,149.5399932861328,145.42999267578125,147.02999877929688,145.7781219482422,335300,ATR
2024-08-02 04:00:00+00:00,146.5800018310547,147.0,143.75,145.69000244140625,144.4495391845703,213500,ATR
2024-08-05 04:00:00+00:00,143.42999267578125,143.42999267578125,139.47999572753906,140.67999267578125,139.48219299316406,448500,ATR
2024-08-06 04:00:00+00:00,141.3300018310547,146.08999633789062,141.11000061035156,144.92999267578125,143.6959991455078,476000,ATR
2024-08-07 04:00:00+00:00,146.00999450683594,147.25999450683594,143.47000122070312,143.60000610351562,142.37734985351562,353600,ATR
2024-08-08 04:00:00+00:00,144.4600067138672,146.16000366210938,144.4600067138672,145.55999755859375,144.3206329345703,268600,ATR
2024-08-09 04:00:00+00:00,145.41000366210938,145.41000366210938,143.47000122070312,143.9499969482422,142.72434997558594,263200,ATR
2024-08-12 04:00:00+00:00,143.97000122070312,144.17999267578125,142.77000427246094,143.2899932861328,142.06996154785156,221100,ATR
2024-08-13 04:00:00+00:00,143.50999450683594,145.3000030517578,143.10000610351562,144.3699951171875,143.14077758789062,212000,ATR
2024-08-14 04:00:00+00:00,144.1300048828125,144.80999755859375,143.49000549316406,143.89999389648438,142.67478942871094,115700,ATR
2024-08-15 04:00:00+00:00,145.0,147.33999633789062,145.0,147.00999450683594,145.75830078125,277500,ATR
2024-08-16 04:00:00+00:00,146.11000061035156,146.83999633789062,145.61000061035156,146.72000122070312,145.47076416015625,250600,ATR
2024-08-19 04:00:00+00:00,146.32000732421875,147.72999572753906,145.9199981689453,146.97000122070312,145.71864318847656,191200,ATR
2024-08-20 04:00:00+00:00,146.97999572753906,148.30999755859375,146.97999572753906,148.11000061035156,146.8489227294922,387200,ATR
2024-08-21 04:00:00+00:00,148.1699981689453,149.57000732421875,147.4600067138672,149.3300018310547,148.0585479736328,267300,ATR
2024-08-22 04:00:00+00:00,149.57000732421875,150.39999389648438,148.6699981689453,148.99000549316406,147.721435546875,200400,ATR
2024-08-23 04:00:00+00:00,149.66000366210938,150.52999877929688,149.44000244140625,150.44000244140625,149.1591033935547,221400,ATR
2024-08-26 04:00:00+00:00,150.67999267578125,152.6699981689453,150.13999938964844,150.16000366210938,148.88148498535156,235500,ATR
2024-08-27 04:00:00+00:00,150.00999450683594,151.5399932861328,149.83999633789062,151.1999969482422,149.91261291503906,208300,ATR
2024-08-28 04:00:00+00:00,150.92999267578125,151.97000122070312,150.92999267578125,151.5399932861328,150.2497100830078,249000,ATR
2024-08-29 04:00:00+00:00,152.5500030517578,152.91000366210938,151.2100067138672,152.27999877929688,150.98341369628906,187100,ATR
2024-08-30 04:00:00+00:00,152.1999969482422,153.44000244140625,151.63999938964844,153.19000244140625,151.88568115234375,178500,ATR
2024-09-03 04:00:00+00:00,152.11000061035156,152.3800048828125,149.72999572753906,150.0399932861328,148.7624969482422,362400,ATR
2024-09-04 04:00:00+00:00,149.60000610351562,150.89999389648438,149.60000610351562,150.72999572753906,149.4466094970703,175800,ATR
2024-09-05 04:00:00+00:00,151.0800018310547,151.75999450683594,149.9499969482422,150.72000122070312,149.43670654296875,200600,ATR
2024-09-06 04:00:00+00:00,150.3800048828125,153.1199951171875,150.3800048828125,152.3800048828125,151.0825958251953,319100,ATR
2024-09-09 04:00:00+00:00,152.57000732421875,153.05999755859375,151.44000244140625,151.91000366210938,150.61659240722656,241500,ATR
2024-09-10 04:00:00+00:00,151.8699951171875,152.7899932861328,151.44000244140625,151.50999450683594,150.219970703125,158100,ATR
2024-09-11 04:00:00+00:00,150.7899932861328,150.8800048828125,148.6300048828125,150.83999633789062,149.55569458007812,178000,ATR
2024-09-12 04:00:00+00:00,150.88999938964844,152.00999450683594,149.97000122070312,151.9600067138672,150.66615295410156,200400,ATR
2024-09-13 04:00:00+00:00,152.19000244140625,153.00999450683594,151.89999389648438,152.27999877929688,150.98341369628906,138600,ATR
2024-09-16 04:00:00+00:00,153.0399932861328,153.1699981689453,152.07000732421875,152.99000549316406,151.68739318847656,182900,ATR
2024-09-17 04:00:00+00:00,154.0,155.57000732421875,151.8699951171875,153.02999877929688,151.72703552246094,259900,ATR
2024-09-18 04:00:00+00:00,153.75999450683594,155.49000549316406,152.7100067138672,153.07000732421875,151.76670837402344,214200,ATR
2024-09-19 04:00:00+00:00,155.02000427246094,158.80999755859375,155.02000427246094,156.89999389648438,155.56407165527344,412400,ATR
2024-09-20 04:00:00+00:00,156.30999755859375,156.30999755859375,154.47999572753906,155.91000366210938,154.58251953125,663300,ATR
2024-09-23 04:00:00+00:00,156.1699981689453,156.91000366210938,154.74000549316406,155.9600067138672,154.63209533691406,315800,ATR
2024-09-24 04:00:00+00:00,156.17999267578125,157.0800018310547,156.02999877929688,156.6300048828125,155.29638671875,246200,ATR
2024-09-25 04:00:00+00:00,157.3000030517578,157.8699951171875,155.8699951171875,157.13999938964844,155.8020477294922,284100,ATR
2024-09-26 04:00:00+00:00,157.94000244140625,159.05999755859375,157.6999969482422,158.3800048828125,157.031494140625,371600,ATR
2024-09-27 04:00:00+00:00,158.67999267578125,161.5500030517578,158.25999450683594,159.88999938964844,158.52862548828125,354300,ATR
2024-09-30 04:00:00+00:00,159.2899932861328,160.4199981689453,158.92999267578125,160.19000244140625,158.82608032226562,289800,ATR
2024-10-01 04:00:00+00:00,160.5399932861328,160.5399932861328,159.0500030517578,159.97000122070312,158.60794067382812,192200,ATR
2024-10-02 04:00:00+00:00,159.86000061035156,160.11000061035156,157.9600067138672,158.75,157.39834594726562,186900,ATR
2024-10-03 04:00:00+00:00,157.99000549316406,160.4600067138672,156.63999938964844,158.94000244140625,157.5867156982422,367000,ATR
2024-10-04 04:00:00+00:00,159.94000244140625,161.47000122070312,159.3300018310547,160.5800018310547,159.21275329589844,350500,ATR
2024-10-07 04:00:00+00:00,159.38999938964844,159.63999938964844,158.00999450683594,158.69000244140625,157.33885192871094,223300,ATR
2024-10-08 04:00:00+00:00,158.27999877929688,159.02000427246094,157.10000610351562,158.6699981689453,157.3190155029297,205900,ATR
2024-10-09 04:00:00+00:00,158.35000610351562,160.0500030517578,158.1199951171875,159.6999969482422,158.34024047851562,152600,ATR
2024-10-10 04:00:00+00:00,158.0500030517578,159.3800048828125,158.0500030517578,159.22000122070312,157.8643341064453,168500,ATR
2024-10-11 04:00:00+00:00,160.94000244140625,161.9199981689453,160.35000610351562,161.5500030517578,160.17449951171875,194400,ATR
2024-10-14 04:00:00+00:00,164.99000549316406,167.75999450683594,163.4600067138672,167.19000244140625,165.7664794921875,469700,ATR
2024-10-15 04:00:00+00:00,167.32000732421875,169.66000366210938,166.49000549316406,168.67999267578125,167.24378967285156,397300,ATR
2024-10-16 04:00:00+00:00,168.6999969482422,169.1999969482422,165.9199981689453,166.0399932861328,164.6262664794922,330000,ATR
2024-10-17 04:00:00+00:00,166.97999572753906,168.32000732421875,166.52000427246094,167.88999938964844,166.46051025390625,238200,ATR
2024-10-18 04:00:00+00:00,169.10000610351562,169.10000610351562,167.77999877929688,168.6300048828125,167.19422912597656,171500,ATR
2024-10-21 04:00:00+00:00,168.47000122070312,168.49000549316406,166.3000030517578,166.3300018310547,164.91380310058594,217900,ATR
2024-10-22 04:00:00+00:00,165.72000122070312,166.3699951171875,164.80999755859375,165.80999755859375,164.39822387695312,228500,ATR
2024-10-23 04:00:00+00:00,166.50999450683594,167.97999572753906,166.16000366210938,167.64999389648438,166.22254943847656,318100,ATR
2024-10-24 04:00:00+00:00,168.32000732421875,168.3300018310547,166.14999389648438,166.5500030517578,165.5763702392578,547300,ATR
2024-10-25 04:00:00+00:00,168.9199981689453,169.85000610351562,164.61000061035156,168.91000366210938,167.92257690429688,518900,ATR
2024-10-28 04:00:00+00:00,169.89999389648438,171.41000366210938,168.75999450683594,169.10000610351562,168.11146545410156,350000,ATR
2024-10-29 04:00:00+00:00,169.02999877929688,169.49000549316406,167.63999938964844,168.6999969482422,167.7137908935547,338100,ATR
2024-10-30 04:00:00+00:00,168.35000610351562,170.1999969482422,168.1199951171875,169.02999877929688,168.04185485839844,290300,ATR
2024-10-31 04:00:00+00:00,169.08999633789062,170.27999877929688,167.86000061035156,167.91000366210938,166.9284210205078,329900,ATR
2024-11-01 04:00:00+00:00,168.10000610351562,170.99000549316406,167.6199951171875,169.41000366210938,168.41964721679688,316300,ATR
2024-11-04 05:00:00+00:00,169.6300048828125,170.57000732421875,168.17999267578125,168.25999450683594,167.27635192871094,191800,ATR
2024-11-05 05:00:00+00:00,167.74000549316406,170.36000061035156,167.74000549316406,170.30999755859375,169.3143768310547,206200,ATR
2024-11-06 05:00:00+00:00,175.14999389648438,175.14999389648438,172.13999938964844,173.16000366210938,172.14772033691406,264100,ATR
2024-11-07 05:00:00+00:00,174.1999969482422,175.4600067138672,173.5399932861328,174.7100067138672,173.6886749267578,412300,ATR
2024-11-08 05:00:00+00:00,174.6999969482422,177.83999633789062,174.49000549316406,175.75999450683594,174.73252868652344,309200,ATR
2024-11-11 05:00:00+00:00,176.32000732421875,178.02999877929688,175.89999389648438,176.14999389648438,175.1202392578125,189100,ATR
2024-11-12 05:00:00+00:00,176.64999389648438,177.24000549316406,174.9499969482422,175.6999969482422,174.67286682128906,179800,ATR
2024-11-13 05:00:00+00:00,175.5,176.38999938964844,175.0500030517578,175.5,174.4740447998047,168400,ATR
2024-11-14 05:00:00+00:00,175.14999389648438,175.7899932861328,173.91000366210938,174.10000610351562,173.0822296142578,198200,ATR
2024-11-15 05:00:00+00:00,172.97000122070312,173.75999450683594,166.1699981689453,166.49000549316406,165.5167236328125,620500,ATR
2024-11-18 05:00:00+00:00,166.38999938964844,167.82000732421875,164.3300018310547,166.69000244140625,165.71554565429688,384400,ATR
2024-11-19 05:00:00+00:00,166.4199981689453,167.6699981689453,166.1999969482422,166.89999389648438,165.92430114746094,287600,ATR
2024-11-20 05:00:00+00:00,167.0,168.94000244140625,165.64999389648438,168.72999572753906,167.7436065673828,221800,ATR
2024-11-21 05:00:00+00:00,168.69000244140625,170.22999572753906,167.74000549316406,169.8800048828125,168.88690185546875,205100,ATR
2024-11-22 05:00:00+00:00,170.17999267578125,172.07000732421875,170.17999267578125,171.50999450683594,170.50735473632812,241600,ATR
2024-11-25 05:00:00+00:00,172.0500030517578,174.02000427246094,171.74000549316406,172.5,171.4915771484375,270100,ATR
2024-11-26 05:00:00+00:00,172.86000061035156,172.86000061035156,171.16000366210938,172.0399932861328,171.0342559814453,140300,ATR
2024-11-27 05:00:00+00:00,172.6699981689453,173.8800048828125,171.52000427246094,171.72999572753906,170.72607421875,167200,ATR
2024-11-29 05:00:00+00:00,172.58999633789062,173.49000549316406,172.08999633789062,172.9600067138672,171.9488983154297,117300,ATR
2024-12-02 05:00:00+00:00,172.97999572753906,173.11000061035156,170.83999633789062,172.75999450683594,171.75006103515625,170900,ATR
2024-12-03 05:00:00+00:00,173.4499969482422,173.4499969482422,171.08999633789062,172.39999389648438,171.3921661376953,160100,ATR
2024-12-04 05:00:00+00:00,171.88999938964844,172.88999938964844,171.02999877929688,172.58999633789062,171.58103942871094,173400,ATR
2024-12-05 05:00:00+00:00,172.00999450683594,172.44000244140625,170.52999877929688,171.10000610351562,170.09976196289062,245000,ATR
2024-12-06 05:00:00+00:00,171.60000610351562,172.64999389648438,170.85000610351562,171.14999389648438,170.14947509765625,209200,ATR
2024-12-09 05:00:00+00:00,171.55999755859375,173.47000122070312,170.22999572753906,170.7899932861328,169.79156494140625,301700,ATR
2024-12-10 05:00:00+00:00,170.72000122070312,171.3699951171875,168.19000244140625,170.91000366210938,169.91087341308594,287000,ATR
2024-12-11 05:00:00+00:00,171.8800048828125,174.10000610351562,171.75,172.30999755859375,171.3026885986328,418600,ATR
2024-12-12 05:00:00+00:00,171.6699981689453,172.60000610351562,170.77999877929688,171.63999938964844,170.63661193847656,178300,ATR
2024-12-13 05:00:00+00:00,170.91000366210938,171.0,169.82000732421875,170.1999969482422,169.20501708984375,153200,ATR
2024-12-16 05:00:00+00:00,170.13999938964844,170.92999267578125,167.58999633789062,167.6300048828125,166.65005493164062,236100,ATR
2024-12-17 05:00:00+00:00,166.89999389648438,166.91000366210938,162.83999633789062,163.08999633789062,162.13658142089844,511900,ATR
2024-12-18 05:00:00+00:00,163.69000244140625,164.4199981689453,157.91000366210938,158.2100067138672,157.2851104736328,468600,ATR
2024-12-19 05:00:00+00:00,158.50999450683594,161.57000732421875,158.22999572753906,158.8699951171875,157.94125366210938,404700,ATR
2024-12-20 05:00:00+00:00,158.72000122070312,159.77999877929688,157.47000122070312,158.17999267578125,157.25527954101562,730200,ATR
2024-12-23 05:00:00+00:00,157.1699981689453,158.89999389648438,156.9600067138672,158.52000427246094,157.59332275390625,194900,ATR
2024-12-24 05:00:00+00:00,158.77999877929688,159.4199981689453,157.9199981689453,159.35000610351562,158.41845703125,100500,ATR
2024-12-26 05:00:00+00:00,158.4199981689453,159.6300048828125,158.4199981689453,158.85000610351562,157.92138671875,164500,ATR
2024-12-27 05:00:00+00:00,157.82000732421875,159.5800018310547,157.61000061035156,158.14999389648438,157.2254638671875,145000,ATR
2024-12-30 05:00:00+00:00,157.0,157.49000549316406,155.0,156.72999572753906,155.8137664794922,221700,ATR
2024-12-31 05:00:00+00:00,157.27999877929688,158.25,156.17999267578125,157.10000610351562,156.18161010742188,317100,ATR
2025-01-02 05:00:00+00:00,157.64999389648438,158.11000061035156,153.4499969482422,154.16000366210938,153.25880432128906,239400,ATR
2025-01-03 05:00:00+00:00,154.0399932861328,155.72000122070312,152.8699951171875,155.5,154.59095764160156,250700,ATR
2025-01-06 05:00:00+00:00,154.0,154.63999938964844,151.44000244140625,152.9199981689453,152.0260467529297,369000,ATR
2025-01-07 05:00:00+00:00,155.9199981689453,156.05999755859375,152.60000610351562,153.42999267578125,152.53305053710938,361200,ATR
2025-01-08 05:00:00+00:00,152.88999938964844,154.25999450683594,152.08999633789062,154.14999389648438,153.2488555908203,228600,ATR
2025-01-10 05:00:00+00:00,152.72000122070312,154.3000030517578,152.5800018310547,153.4499969482422,152.55294799804688,350800,ATR
2025-01-13 05:00:00+00:00,152.92999267578125,154.6999969482422,152.92999267578125,153.88999938964844,152.99037170410156,349300,ATR
2025-01-14 05:00:00+00:00,154.80999755859375,155.4499969482422,153.47999572753906,154.61000061035156,153.70616149902344,196900,ATR
2025-01-15 05:00:00+00:00,156.1199951171875,156.9199981689453,154.1699981689453,155.55999755859375,154.65060424804688,206100,ATR
2025-01-16 05:00:00+00:00,155.88999938964844,157.1699981689453,155.30999755859375,156.41000366210938,155.49563598632812,346300,ATR
2025-01-17 05:00:00+00:00,156.97000122070312,157.9499969482422,155.67999267578125,156.08999633789062,155.17750549316406,231900,ATR
2025-01-21 05:00:00+00:00,156.72000122070312,160.25999450683594,156.72000122070312,159.8300018310547,158.89566040039062,270900,ATR
2025-01-22 05:00:00+00:00,159.33999633789062,160.75,158.33999633789062,159.07000732421875,158.14010620117188,280000,ATR
2025-01-23 05:00:00+00:00,158.4600067138672,159.80999755859375,157.72999572753906,159.6199951171875,158.68687438964844,149800,ATR
2025-01-24 05:00:00+00:00,159.64999389648438,160.47000122070312,157.22000122070312,158.3000030517578,157.37460327148438,329600,ATR
2025-01-27 05:00:00+00:00,158.25,158.9199981689453,156.64999389648438,158.4600067138672,157.53366088867188,317000,ATR
2025-01-28 05:00:00+00:00,157.57000732421875,160.35000610351562,157.57000732421875,158.4199981689453,157.49388122558594,204300,ATR
2025-01-29 05:00:00+00:00,158.77999877929688,158.82000732421875,156.6199951171875,157.11000061035156,156.19154357910156,265800,ATR
2025-01-30 05:00:00+00:00,157.82000732421875,158.67999267578125,156.5800018310547,158.1300048828125,157.20558166503906,274200,ATR
2025-01-31 05:00:00+00:00,157.89999389648438,159.38999938964844,156.75999450683594,157.14999389648438,156.23130798339844,834100,ATR
2025-02-03 05:00:00+00:00,154.5800018310547,156.75,154.13999938964844,155.97999572753906,155.0681610107422,364600,ATR
2025-02-04 05:00:00+00:00,156.08999633789062,158.4600067138672,156.08999633789062,157.6999969482422,156.77809143066406,302400,ATR
2025-02-05 05:00:00+00:00,158.27999877929688,159.66000366210938,157.77999877929688,158.32000732421875,157.8448944091797,262600,ATR
2025-02-06 05:00:00+00:00,159.83999633789062,159.83999633789062,155.3699951171875,156.4499969482422,155.98049926757812,446600,ATR
2025-02-07 05:00:00+00:00,157.6199951171875,157.89999389648438,142.0399932861328,143.17999267578125,142.7503204345703,1221500,ATR
2025-02-10 05:00:00+00:00,144.25999450683594,144.60000610351562,140.89999389648438,143.27999877929688,142.8500213623047,621900,ATR
2025-02-11 05:00:00+00:00,142.27000427246094,143.07000732421875,140.25999450683594,142.2899932861328,141.8629913330078,377300,ATR
2025-02-12 05:00:00+00:00,140.97000122070312,143.49000549316406,139.92999267578125,141.6999969482422,141.27476501464844,423500,ATR
2025-02-13 05:00:00+00:00,142.75,143.77999877929688,141.4600067138672,142.77000427246094,142.341552734375,665900,ATR
2025-02-14 05:00:00+00:00,143.69000244140625,145.30999755859375,142.72000122070312,144.7899932861328,144.35548400878906,512800,ATR
2025-02-18 05:00:00+00:00,144.7899932861328,147.2899932861328,143.89999389648438,146.89999389648438,146.4591522216797,489600,ATR
2025-02-19 05:00:00+00:00,146.13999938964844,147.49000549316406,145.61000061035156,147.0399932861328,146.59872436523438,331000,ATR
2025-02-20 05:00:00+00:00,146.97000122070312,147.4199981689453,145.9199981689453,146.67999267578125,146.23980712890625,283100,ATR
2025-02-21 05:00:00+00:00,147.02999877929688,147.38999938964844,145.1999969482422,146.33999633789062,145.9008331298828,451900,ATR
2025-02-24 05:00:00+00:00,146.17999267578125,147.2899932861328,144.36000061035156,145.61000061035156,145.17303466796875,353300,ATR
2025-02-25 05:00:00+00:00,145.8800048828125,148.3300018310547,145.72000122070312,147.7100067138672,147.26673889160156,336700,ATR
2025-02-26 05:00:00+00:00,146.64999389648438,149.17999267578125,146.6199951171875,146.63999938964844,146.19993591308594,735600,ATR
2025-02-27 05:00:00+00:00,146.22999572753906,147.17999267578125,145.36000061035156,145.6300048828125,145.19297790527344,262800,ATR
2025-02-28 05:00:00+00:00,146.16000366210938,146.9499969482422,144.6300048828125,146.75,146.30960083007812,348700,ATR
2025-03-03 05:00:00+00:00,146.97000122070312,148.83999633789062,145.69000244140625,146.58999633789062,146.15008544921875,394100,ATR
2025-03-04 05:00:00+00:00,145.5399932861328,147.9499969482422,145.13999938964844,145.94000244140625,145.50204467773438,490100,ATR
2025-03-05 05:00:00+00:00,146.0500030517578,148.85000610351562,146.0500030517578,148.44000244140625,147.99453735351562,445100,ATR
2025-03-06 05:00:00+00:00,147.55999755859375,151.5,147.05999755859375,151.14999389648438,150.69639587402344,471700,ATR
2025-03-07 05:00:00+00:00,150.50999450683594,153.36000061035156,149.17999267578125,152.77999877929688,152.32150268554688,480200,ATR
2025-03-10 04:00:00+00:00,152.07000732421875,154.0,150.24000549316406,150.57000732421875,150.11814880371094,391100,ATR
2025-03-11 04:00:00+00:00,150.33999633789062,150.55999755859375,147.27000427246094,147.88999938964844,147.44618225097656,304000,ATR
2025-03-12 04:00:00+00:00,148.24000549316406,148.24000549316406,145.55999755859375,146.02999877929688,145.59176635742188,299700,ATR
2025-03-13 04:00:00+00:00,146.41000366210938,147.1999969482422,143.75999450683594,144.75999450683594,144.32557678222656,238400,ATR
2025-03-14 04:00:00+00:00,145.22999572753906,146.88999938964844,144.5399932861328,146.66000366210938,146.21987915039062,223600,ATR
2025-03-17 04:00:00+00:00,146.50999450683594,148.0,145.86000061035156,147.83999633789062,147.39633178710938,225200,ATR
2025-03-18 04:00:00+00:00,147.38999938964844,147.52999877929688,145.77999877929688,146.3000030517578,145.8609619140625,219900,ATR
2025-03-19 04:00:00+00:00,146.33999633789062,147.4600067138672,145.47000122070312,146.97999572753906,146.53890991210938,279600,ATR
2025-03-20 04:00:00+00:00,146.1300048828125,147.4199981689453,143.72999572753906,145.1999969482422,144.76425170898438,332800,ATR
2025-03-21 04:00:00+00:00,144.0,145.4600067138672,142.36000061035156,144.82000732421875,144.38540649414062,601900,ATR
2025-03-24 04:00:00+00:00,145.75,148.17999267578125,144.91000366210938,147.99000549316406,147.5458984375,463800,ATR
2025-03-25 04:00:00+00:00,148.49000549316406,149.22999572753906,145.92999267578125,147.2100067138672,146.7682342529297,325200,ATR
2025-03-26 04:00:00+00:00,147.0500030517578,148.6999969482422,146.3000030517578,148.55999755859375,148.11416625976562,630400,ATR
2025-03-27 04:00:00+00:00,148.27999877929688,149.88999938964844,147.02999877929688,149.35000610351562,148.9018096923828,312700,ATR
2025-03-28 04:00:00+00:00,149.2899932861328,150.0,145.75999450683594,146.92999267578125,146.4890594482422,239800,ATR
2025-03-31 04:00:00+00:00,146.5800018310547,149.08999633789062,146.10000610351562,148.3800048828125,147.93472290039062,372500,ATR
2025-04-01 04:00:00+00:00,148.8800048828125,150.02999877929688,147.3800048828125,149.10000610351562,148.65255737304688,240000,ATR
2025-04-02 04:00:00+00:00,148.0,151.1300048828125,148.0,150.52999877929688,150.07826232910156,247600,ATR
2025-04-03 04:00:00+00:00,146.75999450683594,150.0500030517578,146.4600067138672,148.6699981689453,148.22384643554688,352900,ATR
2025-04-04 04:00:00+00:00,145.22000122070312,147.9600067138672,140.0399932861328,140.17999267578125,139.7593231201172,531600,ATR
2025-04-07 04:00:00+00:00,136.33999633789062,142.1199951171875,130.85000610351562,134.64999389648438,134.24591064453125,629900,ATR
2025-04-08 04:00:00+00:00,137.3800048828125,139.30999755859375,131.27999877929688,133.66000366210938,133.25889587402344,473800,ATR
2025-04-09 04:00:00+00:00,133.17999267578125,144.4199981689453,131.32000732421875,143.75,143.318603515625,491800,ATR
2025-04-10 04:00:00+00:00,140.0,143.3699951171875,137.57000732421875,140.75999450683594,140.3375701904297,309000,ATR
2025-04-11 04:00:00+00:00,140.8699951171875,144.7100067138672,139.74000549316406,144.11000061035156,143.6775360107422,203000,ATR
2025-04-14 04:00:00+00:00,145.8000030517578,146.39999389648438,143.7899932861328,145.7899932861328,145.35247802734375,249300,ATR
2025-04-15 04:00:00+00:00,146.10000610351562,146.5399932861328,143.77000427246094,143.94000244140625,143.50804138183594,250700,ATR
2025-04-16 04:00:00+00:00,144.05999755859375,145.82000732421875,142.57000732421875,145.0,144.5648651123047,307700,ATR
2025-04-17 04:00:00+00:00,145.39999389648438,145.75999450683594,140.7100067138672,143.8300018310547,143.39837646484375,390600,ATR
2025-04-21 04:00:00+00:00,143.3000030517578,144.0500030517578,141.10000610351562,142.5800018310547,142.15213012695312,291600,ATR
2025-04-22 04:00:00+00:00,144.5,146.82000732421875,143.58999633789062,146.02000427246094,145.58180236816406,217800,ATR
2025-04-23 04:00:00+00:00,147.8699951171875,149.32000732421875,147.22000122070312,148.0500030517578,147.605712890625,537000,ATR
2025-04-24 04:00:00+00:00,147.92999267578125,152.0,145.4600067138672,151.4600067138672,151.00547790527344,424500,ATR
2025-04-25 04:00:00+00:00,150.85000610351562,153.0,147.57000732421875,149.05999755859375,148.6126708984375,220500,ATR
2025-04-28 04:00:00+00:00,149.8000030517578,151.02999877929688,148.27999877929688,149.6999969482422,149.25074768066406,235200,ATR
2025-04-29 04:00:00+00:00,149.75999450683594,151.97999572753906,149.00999450683594,150.3000030517578,149.8489532470703,359900,ATR
2025-04-30 04:00:00+00:00,149.07000732421875,149.99000549316406,147.2100067138672,149.9499969482422,149.5,556200,ATR
2025-05-01 04:00:00+00:00,148.4499969482422,150.52999877929688,146.9600067138672,148.27999877929688,148.27999877929688,445300,ATR
2025-05-02 04:00:00+00:00,152.99000549316406,153.0,147.7899932861328,152.0,152.0,431600,ATR
2025-05-05 04:00:00+00:00,151.42999267578125,153.22000122070312,150.8800048828125,151.47999572753906,151.47999572753906,267600,ATR
2025-05-06 04:00:00+00:00,150.25,152.0399932861328,149.4199981689453,150.9199981689453,150.9199981689453,312000,ATR
2025-05-07 04:00:00+00:00,151.8800048828125,153.14999389648438,150.6199951171875,151.38999938964844,151.38999938964844,318400,ATR
2025-05-08 04:00:00+00:00,151.7899932861328,154.57000732421875,151.24000549316406,153.36000061035156,153.36000061035156,302500,ATR
2025-05-09 04:00:00+00:00,153.91000366210938,154.3000030517578,152.94000244140625,153.32000732421875,153.32000732421875,231600,ATR
2025-05-12 04:00:00+00:00,155.7899932861328,156.58999633789062,153.6999969482422,155.52000427246094,155.52000427246094,352500,ATR
2025-05-13 04:00:00+00:00,156.30999755859375,156.30999755859375,153.1999969482422,153.63999938964844,153.63999938964844,339400,ATR
2025-05-14 04:00:00+00:00,153.6199951171875,153.6199951171875,150.97000122070312,152.47999572753906,152.47999572753906,350100,ATR
2025-05-15 04:00:00+00:00,152.35000610351562,155.47999572753906,152.35000610351562,154.9499969482422,154.9499969482422,278100,ATR
2025-05-16 04:00:00+00:00,155.17999267578125,157.14999389648438,154.58999633789062,157.00999450683594,157.00999450683594,278600,ATR
2025-05-19 04:00:00+00:00,156.36000061035156,158.33999633789062,156.30999755859375,158.0800018310547,158.0800018310547,185400,ATR
2025-05-20 04:00:00+00:00,160.25999450683594,160.25999450683594,157.91000366210938,158.52999877929688,158.52999877929688,388100,ATR
2025-05-21 04:00:00+00:00,156.86000061035156,157.64999389648438,155.8300018310547,156.4499969482422,156.4499969482422,319800,ATR
2025-05-22 04:00:00+00:00,156.36000061035156,157.25999450683594,155.55999755859375,156.64999389648438,156.64999389648438,278900,ATR
2025-05-23 04:00:00+00:00,155.1199951171875,156.17999267578125,154.25999450683594,155.94000244140625,155.94000244140625,260500,ATR
2025-05-27 04:00:00+00:00,157.02999877929688,158.44000244140625,156.69000244140625,158.16000366210938,158.16000366210938,352800,ATR
2025-05-28 04:00:00+00:00,158.16000366210938,158.83999633789062,157.25999450683594,157.39999389648438,157.39999389648438,364400,ATR
2025-05-29 04:00:00+00:00,157.8300018310547,158.6699981689453,156.82000732421875,158.3300018310547,158.3300018310547,232100,ATR
2025-05-30 04:00:00+00:00,158.24000549316406,158.77999877929688,156.5399932861328,158.39999389648438,158.39999389648438,335100,ATR
2025-06-02 04:00:00+00:00,157.5399932861328,159.07000732421875,155.25999450683594,156.91000366210938,156.91000366210938,349600,ATR
2025-06-03 04:00:00+00:00,156.17999267578125,157.44000244140625,156.0,156.25999450683594,156.25999450683594,397800,ATR
2025-06-04 04:00:00+00:00,156.49000549316406,156.52000427246094,150.2899932861328,150.41000366210938,150.41000366210938,831900,ATR
2025-06-05 04:00:00+00:00,151.5800018310547,153.33999633789062,149.0500030517578,152.49000549316406,152.49000549316406,482400,ATR
2025-06-06 04:00:00+00:00,154.3699951171875,154.47999572753906,152.2100067138672,153.30999755859375,153.30999755859375,264700,ATR
2025-06-09 04:00:00+00:00,152.7100067138672,153.17999267578125,151.36000061035156,151.60000610351562,151.60000610351562,388400,ATR
2025-06-10 04:00:00+00:00,152.16000366210938,153.0,150.86000061035156,152.52999877929688,152.52999877929688,323500,ATR
2025-06-11 04:00:00+00:00,153.0,153.58999633789062,151.60000610351562,151.9199981689453,151.9199981689453,380800,ATR
2025-06-12 04:00:00+00:00,151.41000366210938,154.6199951171875,151.41000366210938,154.35000610351562,154.35000610351562,337200,ATR
2025-06-13 04:00:00+00:00,153.0,153.72000122070312,150.72999572753906,151.16000366210938,151.16000366210938,361200,ATR
2025-06-16 04:00:00+00:00,151.24000549316406,152.89999389648438,151.1199951171875,151.69000244140625,151.69000244140625,346200,ATR
2025-06-17 04:00:00+00:00,150.66000366210938,151.25999450683594,149.1300048828125,149.4499969482422,149.4499969482422,379700,ATR
2025-06-18 04:00:00+00:00,149.1199951171875,150.72999572753906,149.1199951171875,149.6999969482422,149.6999969482422,383200,ATR
2025-06-20 04:00:00+00:00,150.2899932861328,150.77000427246094,148.99000549316406,150.3000030517578,150.3000030517578,570500,ATR
2025-06-23 04:00:00+00:00,149.49000549316406,153.94000244140625,149.49000549316406,153.7899932861328,153.7899932861328,356500,ATR
2025-06-24 04:00:00+00:00,154.57000732421875,154.57000732421875,153.17999267578125,153.8699951171875,153.8699951171875,246600,ATR
2025-06-25 04:00:00+00:00,153.86000061035156,154.52999877929688,152.77000427246094,153.92999267578125,153.92999267578125,264700,ATR
2025-06-26 04:00:00+00:00,154.52999877929688,155.5800018310547,153.1199951171875,154.47999572753906,154.47999572753906,658200,ATR
2025-06-27 04:00:00+00:00,154.66000366210938,156.11000061035156,154.22999572753906,155.82000732421875,155.82000732421875,643100,ATR
2025-06-30 04:00:00+00:00,156.02999877929688,156.5,154.61000061035156,156.42999267578125,156.42999267578125,315500,ATR
2025-07-01 04:00:00+00:00,156.42999267578125,159.8000030517578,155.9600067138672,159.00999450683594,159.00999450683594,338300,ATR
2025-07-02 04:00:00+00:00,159.02000427246094,160.52999877929688,158.64999389648438,160.32000732421875,160.32000732421875,293500,ATR
2025-07-03 04:00:00+00:00,160.60000610351562,161.36000061035156,159.82000732421875,161.0399932861328,161.0399932861328,235100,ATR
2025-07-07 00:00:00-04:00,160.9499969482422,162.3699951171875,160.5500030517578,160.9600067138672,160.9600067138672,313900,ATR
